1           Chord[m]    T/C[%]  Set no.
1 19 Blade
0.000		3.542		100		1
1.367		3.542		100		1
4.100		3.854		100		1
6.833		4.167		90		1
10.250		4.557		40		1
14.350		4.652		35		1
18.450		4.458		35		1
22.550		4.249		30		1
26.650		4.007		25		1
30.750		3.748		25		1
34.850		3.502		21		1
38.950		3.256		21		1
43.050		3.01		17		1
47.150		2.764		17		1
51.250		2.518		17		1
54.667		2.313		17		1
57.400		2.086		17		1
60.133		1.419		17		1
61.500		0.961		17		1
